time_sec,input,tonic_tau2,phasic_tau2,tonic_tau4,phasic_tau4
0,4.9604923750018495,4.9376194352322669,0,4.9507842485045392,0
0.25,4.900653569879946,4.9179049180413337,0,4.9073032870705724,0
0.5,5.0349341056132317,4.8971988883377291,0.14551321314208204,4.8631464070106558,0.17940051386211692
0.75,5.0443665799421975,4.8755467090066134,0.14444523242247692,4.818344215515352,0.20288508775768441
1,4.9940483405594804,4.8529937429331476,0.16050669751439184,4.7729273197752233,0.23913905785671483
1.25,5.0302768999791283,4.8295853530024919,0.21295351577411673,4.7269263269808333,0.31416212852789716
1.5,5.0998053530612308,4.8053669020998067,0.26859478015710558,4.6803718443227424,0.39505701711973079
1.75,5.0696963279125189,4.780383753110252,0.29779309445250263,4.6332944789915151,0.44723625646785731
2,5.054404509952378,4.754681268918989,0.30513276743443185,4.5857248381777129,0.47318581801593551
2.25,5.0557708138965465,4.7283048124111779,0.30970666904040489,4.5376935290718992,0.49784725208204827
2.5,4.980559758770954,4.701299746471979,0.32513019743183269,4.4892311588646354,0.53803345963387017
2.75,5.0742870974606653,4.6737114339865524,0.33751291747187151,4.4403683347464842,0.57174365239882696
3,4.946003935311194,4.6455852378400584,0.35149347200130615,4.3911356639080097,0.60456905668684435
3.25,5.0141553324411072,4.616966520917658,0.38080591104002315,4.3415637535397718,0.65654844274865842
3.5,5.011219458582282,4.5879006461045124,0.40187917567746206,4.2916832108323355,0.6993184547375918
3.75,4.9489731753116235,4.55843297628578,0.4330998620524078,4.2415246429762608,0.74965771811197113
4,5.0321872138076316,4.5286088743466228,0.50203633994592245,4.1911186571621126,0.83920809198375768
4.25,5.1221714057972507,4.4984737031722002,0.5591209573154784,4.1404958605804518,0.91760668068187534
4.5,5.025275587571044,4.4680728256476741,0.57429345971509926,4.0896868604218417,0.95208423819162791
4.75,4.9841732650061603,4.4374516046582029,0.58569148837329965,4.0387222638768439,0.98261547036238994
5,5.0422597693431452,4.4066554030889487,0.63389592296365105,3.9876326781360225,1.0522963775118477
5.25,5.0917546150527899,4.3757295838250707,0.69746821710713924,3.9364487103899393,1.1377376653702658
5.5,5.0609515493538861,4.3447195097517302,0.72869098882829542,3.8852009678291557,1.1896343940242817
5.75,5.0533752870180217,4.3136705437540872,0.72191387023156373,3.8339200576442352,1.2017644947128292
6,4.9852504637447126,4.282628048717303,0.73470689828881108,3.782636587025741,1.2329489910571449
6.25,5.0829498370967263,4.2516373875265367,0.80177641849417969,3.731381163164234,1.3213497764721294
6.5,5.084356947555718,4.2207439230669497,0.87983589301360354,3.6801843932502782,1.42133992216344
6.75,5.1292883228583959,4.1899930182237011,0.94267933232745771,3.629076884474435,1.5037975410481341
7,5.1388149838446244,4.1594300358819529,0.9720308938204878,3.5780892440272676,1.5531607144302038
7.25,5.1009108832671233,4.1291003389268655,0.95623368411854681,3.5272520790993376,1.5579199253901477
7.5,4.9864618354385932,4.099049290243598,0.91457314143024859,3.4765959968812092,1.5368996505619585
7.75,4.99889491195208,4.0693222527173116,0.9139200247233572,3.4261516045634433,1.5573250240624974
8,5.0178279721606236,4.0399645892331666,0.98964682982931962,3.375949509336603,1.6534977943286968
8.25,5.0895152958559882,4.0110216626763231,1.0542180768625884,3.3260203183912509,1.73956015099364
8.5,5.0374281932029739,3.9825388359319422,1.0929864147497832,3.2763946389179495,1.7996357498488555
8.75,5.1442675884191154,3.9545614718851843,1.1511468176144284,3.2271030781072612,1.8772696586909012
9,5.0929618991661725,3.9271349334212089,1.1877612924280845,3.178176243149748,1.9368487245093384
9.25,5.100963635102687,3.9003045834251773,1.2056467315265809,3.1296447412359738,1.9785717933697855
9.5,5.1221839808110543,3.87411578478225,1.2333570202891335,3.0815391795564997,2.0234710683078738
9.75,5.1035809527250668,3.848613900377587,1.2340928615580198,3.033890165301889,2.0478702667882445
10,5.0179263601669044,3.8238442930963483,1.2787081225037724,2.9867283056627034,2.1217024094905956
10.25,5.3201645489740033,3.7998523258236956,1.4355559175894606,2.9400842078295066,2.2950708276395542
10.5,5.3311304512009148,3.7766191146637036,1.5681132440351422,2.8939458458385912,2.443937277640972
10.75,5.3629957433404725,3.7541257757204507,1.5937282400120716,2.8483011937262512,2.4965204119827464
11,5.2583771710008449,3.7323534250980122,1.5526633715839062,2.8031382255287798,2.4850983426953546
11.25,5.2001355001206093,3.711283178900465,1.499768889923639,2.7584449152824706,2.455212107694809
11.5,5.2069594885297832,3.6908961532318854,1.5009898753816806,2.7142092370236175,2.4762558258771366
11.75,5.2158057249788943,3.6711734641963503,1.5635428092253874,2.6704191647885143,2.5647279057154266
12,5.2973494407755561,3.6520962278979354,1.6260952935136053,2.6270626726134534,2.6517160366030712
12.25,5.2829468322710484,3.6336455604407174,1.6583466580430066,2.5841277345347295,2.7071370657941158
12.5,5.2962646268608076,3.6158025779287741,1.6875666131369487,2.5416023245886357,2.7621887722419189
12.75,5.3170467484334925,3.59854839646618,1.6991744359289469,2.4994744168114651,2.7983602889560837
13,5.2239191067346935,3.5818641321570133,1.6623629165012881,2.4577319852395125,2.78624963826414
13.25,5.2049782802676079,3.5657309011053488,1.6245471307328239,2.41636300390907,2.7741207622149493
13.5,5.159869854601256,3.5501298194152646,1.6207636152893961,2.3753554468564322,2.7956029066720869
13.75,5.1532742412490684,3.5350420031908367,1.6047851366995378,2.3346972881178925,2.8050501652976756
14,5.1054806452864732,3.5204485685361409,1.6042429384933656,2.2943765017297437,2.8304377670705949
14.25,5.1832540304500556,3.5063306315552545,1.6580101623572716,2.2543810617282798,2.9101109842707173
14.5,5.1689145112388175,3.4926693083522533,1.6839965092266573,2.2146989421497945,2.9619460635222343
14.75,5.1288670254669171,3.4794457150312148,1.6478826658042371,2.1753181170305811,2.9518558662500629
15,5.1054375953221349,3.4666409676962142,1.6433042437712457,2.1362265604069339,2.9737866956139816
15.25,5.1662733922434292,3.454236182451329,1.7108388347373162,2.097412246315145,3.0679210343970627
15.5,5.2067224758089754,3.4422124754006358,1.7518754533034959,2.058863148791509,3.1352202944083829
15.75,5.143928814345629,3.4305509626482102,1.7329438485740367,2.0205672418723197,3.1426362023091317
16,5.1528634515801182,3.4192327602981289,1.7177742272148397,1.9825124995938701,3.1546825489866004
16.25,5.1104092728800135,3.4082389844544689,1.7139974169971346,1.9446868959924535,3.1776585701746942
16.5,5.1248033356025724,3.3975507512213063,1.7191349886191267,1.9070784051043641,3.2093949640472488
16.75,5.1210411038735009,3.3871491767027182,1.7393375526635229,1.8696750009658949,3.2572213188117867
17,5.1224348585457529,3.3770153770027802,1.7388401523571293,1.8324646576133397,3.2833209865929933
17.25,5.1068020650702444,3.3671304682255689,1.7492720209269885,1.7954353490829917,3.3206045251723637
17.5,5.1565836600102211,3.3574755664751619,1.8012964541978795,1.7585750494111458,3.4011683920213578
17.75,5.2019516869777771,3.3480317878556343,1.8168110842732086,1.721871732634094,3.4427119593742028
18,5.0898871500240004,3.3387802484710631,1.8062184898810492,1.6853133727881309,3.4589038835284183
18.25,5.2075494206404542,3.3297020644255251,1.8305003610655959,1.6488879439095485,3.5118109683427305
18.5,5.1178296705745376,3.3207783518230967,1.8366419670655119,1.6125834200346421,3.5444911781473487
18.75,5.1200509436501633,3.311990226767854,1.7808567649539446,1.576387775199704,3.5172507462941751
19,5.0310317971792555,3.3033188053638738,1.7278677606916351,1.5402889834410285,3.4908182324921082
19.25,5.0182459973740832,3.2947452037152325,1.759494709266183,1.5042750187949094,3.5482823395637486
19.5,5.17656685489069,3.2862505379260067,1.8334258444414655,1.4683338552976393,3.6531067168637419
19.75,5.0857101082789837,3.2778159241002731,1.8497299572912334,1.4324534669855127,3.6965982231688872
20,5.1809973557647169,3.2694224783421073,1.8986007199067723,1.3966218278948221,3.7692118941471402
20.25,5.3582243578853097,3.2610513167555872,2.0880540051061498,1.3608269120618619,3.9869473552742374
20.5,5.4858129050330193,3.2527007831784935,2.2699284396106063,1.3250680161210564,4.1990311270598015
20.75,5.5944750072694243,3.2443692214486104,2.3183609696008198,1.2893444367068301,4.2761313089317223
21,5.5388515588830645,3.2360549754037189,2.2654946655983381,1.2536554704536056,4.2480778686158782
21.25,5.3695477181856095,3.2277563888816028,2.1960145837998897,1.21800041399581,4.2018608019653056
21.5,5.4223783452474112,3.2194718057200431,2.2139766187670085,1.1823785639678661,4.2488753061376263
21.75,5.5272394933291045,3.2111995697568236,2.2926598376665899,1.1467892170041987,4.3600062247387621
22,5.5449196694325886,3.2029380248297254,2.3106977176527783,1.1112316697392313,4.4068000269449854
22.25,5.4066427920305644,3.1946855147765327,2.2394127163019397,1.0757052188073892,4.3565043248643027
22.5,5.3441636729645019,3.1864403834350266,2.1567595197091349,1.040209160843097,4.2973471848793068
22.75,5.2798535620165135,3.1782009746429898,2.1335665207147181,1.0047427924807781,4.308300565335891
23,5.349725381430197,3.1699656322382044,2.1292282265752394,0.96930541035485707,4.3322177285090708
23.25,5.2083681361856708,3.1617327000584536,2.0829719744313628,0.93389631109976001,4.3083287218382056
23.5,5.2146261504909832,3.1535005219415195,2.0592381369689456,0.89851479134990875,4.3143377090340183
23.75,5.2650109886778163,3.1452674417251849,2.0996620733619307,0.86316014773972771,4.383672053339458
24,5.2470274005993112,3.1370318032472317,2.1188546466588596,0.82783167690364401,4.4265675818098575
24.25,5.2148789020042452,3.1287919503454424,2.1089442487550674,0.79252867547607941,4.4443797165474495
24.5,5.26880304330325,3.1205462268576003,2.10564689901658,0.75725044009145925,4.4709350754944257
24.75,5.1429655164262797,3.1122929766214864,2.0625980726679201,0.72199626738420886,4.4527082696152016
25,5.1365657017723576,3.1040305434748845,2.0272801920558519,0.68676545398874911,4.4435218726795567
25.25,5.1674297936403759,3.0957572712555761,2.0626646455108704,0.65155729653950889,4.5074636814818998
25.5,5.1849367916811167,3.0874715038013441,2.0936950937004881,0.61637109167090998,4.5642947727841898
25.75,5.159057714989145,3.0791715849499712,2.113033941955532,0.58120613601737681,4.6113235138112865
26,5.2706436325104642,3.0708558585392391,2.145041818784772,0.54606172621333471,4.6700754443803998
26.25,5.1365551662303215,3.0625226684069311,2.1292569108181332,0.51093715889320634,4.6803076701149795
26.5,5.1948296137962418,3.0541703583908286,2.0978067108521241,0.47583173069141793,4.6766645241860818
26.75,5.1305403592584895,3.045797272328715,2.1149039603555275,0.4407447382423948,4.7196466931993735
27,5.1731011468611632,3.0374017540583726,2.119327598420726,0.40567547818055694,4.7513776800522569
27.25,5.1324699103816975,3.0289821474175831,2.1021111144755422,0.37062324714033323,4.7603496507709444
27.5,5.1327979609907484,3.0205367962441305,2.1333709610946943,0.33558734175614635,4.8183363877798051
27.75,5.2317061474895112,3.0120640443757956,2.1784793562200386,0.30056705866241895,4.8902585813307669
28,5.131943944097336,3.003562235650362,2.1892776032001557,0.26556169449357814,4.9268915131748647
28.25,5.2330885377182872,2.9950297139056108,2.1720988933679433,0.23057054588404746,4.9375031878417479
28.5,5.1088263594888348,2.9864648229793258,2.1545724287693537,0.19559290946824959,4.9445155089211559
28.75,5.1210440858833683,2.977865906709289,2.1687698013495926,0.16062808188061162,4.9860315589294606
29,5.1987263176703662,2.9692313089332831,2.1654408983894604,0.12567535975555533,5.0103191847974555
29.25,5.0181126469423809,2.9605593734890898,2.1092613491443992,0.09073403972750782,4.9773461296557437
29.5,5.0573011502886871,2.9518484442144919,2.0977394537754828,0.055803418430890872,4.9945739964327593
29.75,5.140834379286634,2.9430968649472722,2.1718428713306115,0.02088279250012981,5.0947751690789991
30,5.1627561694448199,2.9343029795252131,2.2601397995696786,-0.014028541430350039,5.2062690196445569
30.25,5.2738058125713962,2.9254651317860967,2.3316863229580362,-0.048931286726126011,5.3085187265408971
30.5,5.2864527198533819,2.9165869830266788,2.3615788341616502,-0.083826845481653756,5.3621263792442946
30.75,5.2565633452987104,2.9076721945437134,2.3878712319448798,-0.1187166197913907,5.4099440626819151
31,5.3767079652285963,2.8987244276339585,2.4427877249458323,-0.1536020117497916,5.4991246647762422
31.25,5.3513356046825038,2.8897473435941681,2.4413569532520092,-0.18848442345131655,5.5242734853483064
31.5,5.2590290021951196,2.8807446037210971,2.4125144192250145,-0.22336525699041943,5.5102138893349961
31.75,5.303911237301425,2.8717198693115016,2.4454997039891819,-0.25824591446155765,5.5710289733185006
32,5.3727675900163012,2.8626768016621367,2.4748420618966342,-0.29312779795918775,5.638175884316257
32.25,5.2699420720043637,2.8536190620697579,2.4232409784672568,-0.32801230957776895,5.6079478814660497
32.5,5.1863842908637636,2.8445503118311213,2.3624189838803784,-0.36290085141175332,5.5631834947106213
32.75,5.2088530511036186,2.8354742122429806,2.3553960622554286,-0.39779482555560275,5.5877432149299766
33,5.1971396776213519,2.8263944246020936,2.3770277794326136,-0.43269563410377021,5.63841475401947
33.25,5.2198432948799356,2.8173146102052136,2.4131848236076174,-0.46760467915071491,5.6983600463160577
33.5,5.2365434438174319,2.808238430349097,2.4067203123758882,-0.50252336279088983,5.7160163038228209
33.75,5.1328751808516468,2.7991695463305,2.3496431629035479,-0.53745308711875595,5.686698795776878
34,5.1379641923987824,2.7901116194461761,2.3475353919699335,-0.57239525422876714,5.711966058069696
34.25,5.2144785871570587,2.781068310992882,2.417787307061027,-0.60735126621538171,5.8021201198053314
34.5,5.1930998133783364,2.7720432822673726,2.4563711616808459,-0.6423225251730571,5.8735756833497907
34.75,5.2180018832487924,2.763040194566404,2.4052805886182309,-0.67731043319624806,5.8496979383617536
35,5.06942353528658,2.7540627091867305,2.3443606930058296,-0.71231639237941202,5.8047243952139649
35.25,5.0899847220473404,2.7451144874251088,2.3624127758227553,-0.74734180481700552,5.8555933032105791
35.5,5.1851557329962965,2.7361991905782936,2.3987334737684542,-0.78238807260348597,5.9209225850508389
35.75,5.0818475861688084,2.7273204799430402,2.4006906925587854,-0.81745659783330815,5.9416060418436816
36,5.1430152206655695,2.7184820168161048,2.405169947453436,-0.85254878260093214,5.9773458621654818
36.25,5.1205367137253681,2.7096874624942417,2.4030923750040682,-0.88766602900081182,6.0022111842103154
36.5,5.0823950953855004,2.7009404782742061,2.4160118232753445,-0.92280973912740727,6.0352801097693209
36.75,5.1921632200966448,2.6922447254527553,2.4575604881582938,-0.9579813150751697,6.1121068386837978
37,5.1143952020964569,2.6836038653266434,2.4459587371046716,-0.99318215893856099,6.124988708949699
37.25,5.0870266690798722,2.6750215591926256,2.4167488887385034,-1.028413672812035,6.1129931053482096
37.5,5.102517320658734,2.6665014683474584,2.4428767539492813,-1.06367725879005,6.1769883755409944
37.75,5.1212037781865458,2.6580472540878963,2.4369794853947448,-1.0989743189670609,6.1975032042774689
38,5.0265234373620604,2.649662577710695,2.4035617078843132,-1.1343062554375276,6.1807091494459838
38.25,5.0608425928571785,2.6413511005126091,2.4114996418569419,-1.1696744702959041,6.22676189238042
38.5,5.0378586175283919,2.6331164837903955,2.3934602593604981,-1.2050803656366469,6.232893328274371
38.75,4.994236247613534,2.6249623888408089,2.3996647372788122,-1.2405253435542143,6.2523601988305622
39,5.1493164547755184,2.6168924769606052,2.5052986857632304,-1.2760108061430619,6.4037908726163515
39.25,5.170933344494137,2.6089104094465392,2.5716483596834139,-1.3115381554976473,6.512699905751778
39.5,5.156878714969082,2.6010198475953659,2.5207707666509638,-1.3471087937124269,6.4648071805494158
39.75,5.0047284226125113,2.5932244527038408,2.4555505086197598,-1.3827241228818572,6.4127630601691541
40,5.1135674770839286,2.5855278860687205,2.5306436068822977,-1.4183855451003957,6.5388110647655484
40.25,5.3408259062297487,2.5779338089867601,2.7242868170047405,-1.4540944624624981,6.7629168217016256
40.5,5.3929054951208579,2.5704330383632299,2.8685892963525723,-1.4898522663688079,6.9219132540552959
40.75,5.5160781218526793,2.5630163911034027,2.9179968454254293,-1.525660348219966,7.0082077725082481
41,5.4305268888448701,2.5556746841125499,2.8958574981777274,-1.561520099416617,7.0148691758676405
41.25,5.421190258707262,2.5483987342959429,2.8672279111185448,-1.5974329113594017,7.0094132347028095
41.5,5.4081001246993852,2.5411793585588529,2.8637366623582712,-1.6334001754489629,7.0425038942071083
41.75,5.3813189751232766,2.5340073738065518,2.8409114558165451,-1.6694232830859432,7.0439931673537091
42,5.3314708555687318,2.526873596944311,2.8316668437453902,-1.7055036256709881,7.0577922197645453
42.25,5.39623019956377,2.5197688448774023,2.837371250781489,-1.741642594604734,7.1058733454438539
42.5,5.2591491982951375,2.512683934511097,2.7792612620753583,-1.7778415812878281,7.0725157676139183
42.75,5.258487803585532,2.5056096827506669,2.7277024381247941,-1.8141019771209113,7.0380150520588414
43,5.2211043036324636,2.4985369065013829,2.7652701728703732,-1.8504251735046262,7.118776074064594
43.25,5.3394852232568484,2.4914564226685174,2.7730493816737103,-1.8868125618396157,7.1569072038207375
43.5,5.1592999042492993,2.4843590481573417,2.7330918821063297,-1.9232655335265223,7.1324534729692823
43.75,5.2086820506661642,2.4772355998731279,2.7384806588155803,-1.959785479965988,7.1761619391666818
44,5.2592722119795656,2.4700768947211458,2.7366037643856993,-1.9963737925586562,7.2083432882182352
44.25,5.0914667128014273,2.4628737496066688,2.6751940727262977,-2.0330318627051671,7.1660460126179464
44.5,5.0958220879526994,2.4556169814349675,2.6317113192085002,-2.069761081806166,7.1573102314960373
44.75,5.1094431709236297,2.4482974071113137,2.6360170945563008,-2.1065628412622939,7.1942275860687879
45,5.0487746619329759,2.4409058435409792,2.6539611961588929,-2.1434385324741942,7.2355465572754225
45.25,5.1689777170996916,2.4334331076292348,2.6822029972258266,-2.1803895468425072,7.2965264999548207
45.5,5.0750260269045375,2.4258700162813529,2.6934496030024206,-2.2174172757678781,7.3370248177973449
45.75,5.145452305160557,2.4182073864026048,2.7017961918419786,-2.2545231106509496,7.3743075743483892
46,5.1131261913757031,2.4104360348982623,2.7089742152440626,-2.2917084428923618,7.4114628191930265
46.25,5.081980891522953,2.4025467786735959,2.6919949195459725,-2.3289746638927573,7.4232410441525616
46.5,5.1246389669152563,2.3945304346338787,2.6983830574354393,-2.3663231650527816,7.4596369866930283
46.75,5.0567548973312038,2.3863778196843808,2.7209474179559865,-2.4037553377730729,7.510749054041101
47,5.1215981016264767,2.3780797507303753,2.6875808451346823,-2.4412725734542775,7.5080619048593924
47.25,4.99882730537737,2.3696270446771321,2.6547515425913955,-2.4788762634970354,7.5007921914276343
47.5,5.0245151422107019,2.3610105184299237,2.6928351157685144,-2.5165677993019919,7.5716887769082524
47.75,5.1202368251735644,2.3522209888940213,2.6967123756999745,-2.5543485722697872,7.607099032555122
48,4.9513010209058432,2.3432492729746968,2.6752121542207812,-2.5922199738010638,7.6054240072025241
48.25,5.0786559799823792,2.3340861875772214,2.7126798875059022,-2.6301833952964637,7.6782668928065929
48.5,5.031942130963734,2.3247225496068666,2.7143738272655735,-2.6682402281566322,7.7103191604415651
48.75,5.0232509203266327,2.3151491759689051,2.6974873676632161,-2.7063918637822084,7.7122713301842554
49,5.013853097755522,2.3053568835686074,2.7455112351898068,-2.7446396935738377,7.7998055738509295
49.25,5.1119909210051979,2.2953364893112447,2.7544532893647178,-2.7829851089321602,7.8390831151911753
49.5,4.9690122477162735,2.2850788101020889,2.739185133107982,-2.8214295012578221,7.8370775179477832
49.75,5.0862127110774979,2.2745746628464123,2.7889370190137868,-2.8599742619514608,7.9231726028586902
50,5.0669388716319848,2.2638148644494858,2.8014037660267004,-2.8986207824137207,7.970499541895407
50.25,5.0202933631177684,2.2527902318165811,2.771626318548928,-2.9373704540452472,7.956494158549634
50.5,5.0361099529983528,2.2415097684813974,2.8014933801106539,-2.9762193307074263,8.0182672286668542
50.75,5.0747204474863823,2.229982477977634,2.8324831298120032,-3.0151634662616509,8.0830186328881091
51,5.0083578407594036,2.2182173638389915,2.7920938429555981,-3.0541989145693087,8.0603088377587824
51.25,4.9610953897176673,2.2062234295991692,2.7726153889403404,-3.093321729491791,8.071711144887102
51.5,5.0502520104939386,2.1940096787918661,2.8249977942278077,-3.1325279648904907,8.155573091092549
51.75,4.9928342617355668,2.1815851149507823,2.8389424593350876,-3.171813674626792,8.1884973035686848
52,5.0135714210561364,2.1689587416096172,2.8307455406346307,-3.2111749125620914,8.2121611851243692
52.25,5.0359465243108845,2.1561395623020698,2.8795281243961921,-3.2506077325577714,8.2877492037737088
52.5,5.0693174207204548,2.1431365805618405,2.9402858515096466,-3.2901081884752266,8.3694948810030922
52.75,5.1224565956290187,2.1299587999226288,2.9701528786042757,-3.3296723341758483,8.4347585325139107
53,5.0479544008859731,2.1166152239181337,2.9464367228837558,-3.369296223521026,8.4315763415567417
53.25,5.0358200854509079,2.1031148560820543,2.9341390364393942,-3.4089759103721473,8.4396344231732456
53.5,5.0703095197254564,2.0894666999480913,2.9736807459414556,-3.4487074485906053,8.5195579223847915
53.75,5.0429253079032828,2.0756797590499438,2.9573466886970579,-3.4884868920377858,8.5236953841392378
54,4.9434132282912637,2.0617630369213109,2.9107230930735373,-3.5283102945750819,8.4936221881812219
54.25,4.9971980238971137,2.0477255370958933,2.9159870688406322,-3.5681737100638848,8.5349369700955187
54.5,4.9647554662499873,2.0335762631073897,2.9554812967373056,-3.6080731923655822,8.5972482510576071
54.75,5.0610012899054491,2.0193242184894995,3.0346446589621361,-3.6480047953415635,8.6992911345785888
55,5.0893024077157936,2.0049784067759231,3.0815381316879167,-3.6879645728532218,8.7788118097694809
55.25,5.042938870948074,1.9905478315003582,3.0447180396630658,-3.7279485787619464,8.7607401719056259
55.5,4.9730782721231188,1.9760414961965069,3.027485492467556,-3.7679528669291251,8.7698277969813141
55.75,5.0642721460021098,1.961468404398067,3.056822710024413,-3.8079734912161474,8.8308878423174839
56,4.9756271330830764,1.9468375596387393,3.0705599315745906,-3.8480065054844097,8.8618953802928093
56.25,5.0360946092156196,1.9321579654522214,3.0783555844268062,-3.8880479635952963,8.8983421947169834
56.5,4.963090709971298,1.9174386253722147,3.0587907732631749,-3.9280939194101947,8.9074690403143446
56.75,4.9534163344689697,1.9026885429324185,3.0392678346408011,-3.9681404267905034,8.9069860400872916
57,4.9522712124204045,1.8879167216665311,3.0807181948734543,-4.0081835395976064,8.9783683613639376
57.25,5.0231115959805139,1.8731321651082533,3.1276489030786561,-4.0482193116928951,9.0487200421051579
57.5,4.9889424144975214,1.8583438767912845,3.15904671468377,-4.0882437969377605,9.10511903017699
57.75,5.0436770624000848,1.8435608602493243,3.1652305733031976,-4.1282530491935923,9.1385493568021694
58,4.9567428921405146,1.8287921190160721,3.1689540511559415,-4.168243122321778,9.163688722427251
58.25,5.0461107485315324,1.8140466566252265,3.1896346494251246,-4.2082100701837089,9.2145990399366742
58.5,4.9905584308972122,1.7993334766104887,3.2218911914172268,-4.2481499466407815,9.2682541869596271
58.75,5.0841053578413966,1.7846615825055565,3.2883697299795291,-4.2880588055543747,9.3594327643568054
59,5.0724533246591017,1.7700399778441311,3.2985526574317516,-4.3279327007858885,9.4003033302032559
59.25,5.0106783329260205,1.7554776661599116,3.2608941081662524,-4.3677676861967054,9.380903971940759
59.5,5.026964654829321,1.7409836509865961,3.286228464850709,-4.4075598156482201,9.4358675767684481
59.75,5.0338246838529344,1.7265669358578868,3.3046824209611732,-4.4473051430018202,9.4788740365301418
